Frequency Set (GHz)	THz Photocurrent (nA)	Frequency Act (GHz)
100.020	-140.524	100.021
100.060	-140.574	100.017
100.100	-140.677	100.020
100.140	-140.441	100.017
100.180	-140.112	100.020
100.220	-139.569	100.020
100.260	-139.620	100.022
100.300	-139.197	100.022
100.340	-139.184	100.020
100.380	-139.569	100.021
100.420	-139.609	100.024
100.460	-139.863	100.021
100.500	-140.179	100.023
100.540	-139.786	100.021
100.580	-139.217	100.021
100.620	-139.386	100.020
100.660	-139.244	100.021
100.700	-138.905	100.019
100.740	-138.536	100.020
100.780	-137.814	100.020
100.820	-137.175	100.023
100.860	-136.272	100.020
100.900	-135.818	100.023
100.940	-134.705	100.024
100.980	-133.345	100.025
101.020	-132.063	100.019
101.060	-129.971	100.022
101.100	-127.599	100.025
101.140	-125.619	100.024
101.180	-123.524	100.028
101.220	-120.826	100.028
101.260	-117.579	100.027
101.300	-114.795	100.026
101.340	-111.834	100.031
101.380	-107.497	100.033
101.420	-103.938	100.031
101.460	-100.176	100.035
101.500	-95.551	100.039
101.540	-90.955	100.042
101.580	-85.308	100.042
101.620	-80.168	100.047
101.660	-74.273	100.045
101.700	-67.791	100.053
101.740	-61.204	100.056
101.780	-54.469	100.054
101.820	-47.320	100.061
101.860	-40.118	100.063
101.900	-31.978	100.067
101.940	-23.933	100.073
101.980	-15.387	100.076
102.020	-6.214	100.081
102.060	3.329	100.084
102.100	13.367	100.086
102.140	23.485	100.088
102.180	34.507	100.096
102.220	45.160	100.102
102.260	56.078	100.108
102.300	68.186	100.117
102.340	81.054	100.120
102.380	94.320	100.130
102.420	109.079	100.135
102.460	123.520	100.134
102.500	138.947	100.146
102.540	155.278	100.153
102.580	171.609	100.158
102.620	188.094	100.164
102.660	205.845	100.172
102.700	223.449	100.179
102.740	241.638	100.182
102.780	260.071	100.194
102.820	279.353	100.200
102.860	298.622	100.207
102.900	317.984	100.220
102.940	337.144	100.224
102.980	356.222	100.232
103.020	374.232	100.242
103.060	391.282	100.253
103.100	407.793	100.261
103.140	423.710	100.271
103.180	439.000	100.277
103.220	453.016	100.287
103.260	465.518	100.299
103.300	477.514	100.307
103.340	487.411	100.316
103.380	495.843	100.328
103.420	501.450	100.339
103.460	505.047	100.349
103.500	506.181	100.359
103.540	505.409	100.371
103.580	503.524	100.377
103.620	498.922	100.388
103.660	491.994	100.399
103.700	482.074	100.416
103.740	469.151	100.423
103.780	455.711	100.432
103.820	441.694	100.453
103.860	423.913	100.458
103.900	401.246	100.468
103.940	378.695	100.482
103.980	354.672	100.496
104.020	328.913	100.508
104.060	300.264	100.519
104.100	270.600	100.531
104.140	239.111	100.546
104.180	206.923	100.556
104.220	173.554	100.570
104.260	140.876	100.576
104.300	110.685	100.594
104.340	77.962	100.610
104.380	37.741	100.621
104.420	-6.751	100.635
104.460	-51.391	100.649
104.500	-95.704	100.663
104.540	-140.704	100.679
104.580	-185.067	100.692
104.620	-225.818	100.706
104.660	-263.863	100.718
104.700	-300.936	100.732
104.740	-336.079	100.745
104.780	-371.608	100.761
104.820	-404.387	100.777
104.860	-432.193	100.794
104.900	-453.512	100.807
104.940	-470.848	100.822
104.980	-485.918	100.836
105.020	-498.416	100.853
105.060	-510.503	100.867
105.100	-516.970	100.881
105.140	-515.735	100.900
105.180	-513.932	100.919
105.220	-511.184	100.929
105.260	-504.644	100.948
105.300	-494.476	100.960
105.340	-479.824	100.979
105.380	-464.157	100.994
105.420	-445.361	101.011
105.460	-420.743	101.026
105.500	-390.669	101.045
105.540	-357.179	101.063
105.580	-320.979	101.077
105.620	-282.176	101.097
105.660	-237.768	101.118
105.700	-185.586	101.130
105.740	-129.081	101.147
105.780	-70.683	101.168
105.820	-9.597	101.189
105.860	53.139	101.199
105.900	120.033	101.219
105.940	191.270	101.235
105.980	264.048	101.252
106.020	338.291	101.275
106.060	408.925	101.289
106.100	476.201	101.307
106.140	541.718	101.327
106.180	603.823	101.347
106.220	667.603	101.366
106.260	729.053	101.382
106.300	780.342	101.402
106.340	822.630	101.421
106.380	858.604	101.442
106.420	892.871	101.459
106.460	924.493	101.476
106.500	950.034	101.496
106.540	968.974	101.520
106.580	978.681	101.535
106.620	980.467	101.557
106.660	975.298	101.581
106.700	961.381	101.595
106.740	934.310	101.616
106.780	895.218	101.639
106.820	840.226	101.658
106.860	772.398	101.677
106.900	698.229	101.696
106.940	624.303	101.720
106.980	547.308	101.738
107.020	470.273	101.762
107.060	384.373	101.781
107.100	293.088	101.801
107.140	196.369	101.820
107.180	97.751	101.842
107.220	-0.705	101.865
107.260	-98.213	101.888
107.300	-198.642	101.908
107.340	-296.446	101.927
107.380	-389.987	101.953
107.420	-472.089	101.977
107.460	-544.556	101.998
107.500	-609.211	102.017
107.540	-672.714	102.043
107.580	-740.225	102.060
107.620	-793.088	102.085
107.660	-836.219	102.109
107.700	-881.640	102.127
107.740	-931.820	102.155
107.780	-987.730	102.174
107.820	-1025.779	102.197
107.860	-1041.207	102.221
107.900	-1040.019	102.239
107.940	-1022.708	102.263
107.980	-997.372	102.289
108.020	-958.074	102.308
108.060	-909.044	102.337
108.100	-869.593	102.358
108.140	-819.316	102.380
108.180	-759.447	102.401
108.220	-696.898	102.429
108.260	-620.825	102.452
108.300	-529.984	102.474
108.340	-434.476	102.498
108.380	-347.554	102.523
108.420	-261.164	102.544
108.460	-172.024	102.568
108.500	-89.912	102.593
108.540	-16.156	102.619
108.580	38.707	102.648
108.620	80.474	102.670
108.660	113.328	102.696
108.700	137.481	102.719
108.740	157.823	102.741
108.780	177.621	102.768
108.820	192.833	102.794
108.860	199.688	102.814
108.900	197.352	102.841
108.940	185.470	102.871
108.980	166.854	102.892
109.020	143.725	102.920
109.060	115.913	102.942
109.100	79.830	102.967
109.140	37.513	102.997
109.180	-5.399	103.017
109.220	-40.846	103.045
109.260	-68.367	103.071
109.300	-108.563	103.098
109.340	-152.527	103.123
109.380	-185.341	103.149
109.420	-204.129	103.177
109.460	-219.838	103.200
109.500	-233.529	103.230
109.540	-245.611	103.256
109.580	-263.088	103.278
109.620	-282.119	103.308
109.660	-298.493	103.333
109.700	-299.471	103.359
109.740	-279.753	103.383
109.780	-249.576	103.413
109.820	-210.811	103.440
109.860	-163.567	103.466
109.900	-112.746	103.493
109.940	-58.360	103.519
109.980	-3.316	103.545
110.020	49.999	103.575
110.060	100.171	103.602
110.100	146.995	103.630
110.140	192.556	103.656
110.180	234.171	103.683
110.220	266.308	103.711
110.260	288.820	103.736
110.300	309.507	103.768
110.340	327.360	103.797
110.380	339.858	103.821
110.420	343.999	103.850
110.460	336.086	103.877
110.500	307.074	103.901
110.540	259.309	103.929
110.580	207.432	103.962
110.620	153.558	103.987
110.660	95.196	104.019
110.700	29.506	104.045
110.740	-45.993	104.071
110.780	-131.519	104.100
110.820	-225.635	104.130
110.860	-314.993	104.160
110.900	-398.084	104.186
110.940	-473.209	104.214
110.980	-539.114	104.244
111.020	-596.667	104.267
111.060	-631.590	104.304
111.100	-638.460	104.332
111.140	-636.217	104.356
111.180	-632.730	104.390
111.220	-633.722	104.418
111.260	-627.080	104.451
111.300	-613.624	104.481
111.340	-596.156	104.508
111.380	-571.251	104.538
111.420	-536.832	104.566
111.460	-488.763	104.595
111.500	-425.778	104.629
111.540	-355.748	104.662
111.580	-286.631	104.684
111.620	-213.435	104.712
111.660	-137.926	104.748
111.700	-63.793	104.776
111.740	9.779	104.803
111.780	79.868	104.832
111.820	142.949	104.866
111.860	197.988	104.893
111.900	241.576	104.924
111.940	271.967	104.952
111.980	286.174	104.985
112.020	287.475	105.016
112.060	279.987	105.044
112.100	268.839	105.081
112.140	248.204	105.102
112.180	214.978	105.134
112.220	174.922	105.169
112.260	127.925	105.199
112.300	79.007	105.230
112.340	27.934	105.260
112.380	-28.553	105.290
112.420	-85.400	105.322
112.460	-143.169	105.352
112.500	-201.543	105.383
112.540	-254.158	105.414
112.580	-295.996	105.446
112.620	-330.072	105.474
112.660	-355.593	105.506
112.700	-368.855	105.541
112.740	-371.455	105.568
112.780	-356.674	105.601
112.820	-322.148	105.634
112.860	-276.445	105.664
112.900	-225.631	105.696
112.940	-168.242	105.728
112.980	-101.516	105.761
113.020	-28.297	105.788
113.060	50.236	105.824
113.100	130.014	105.858
113.140	210.315	105.889
113.180	291.079	105.918
113.220	369.053	105.950
113.260	446.473	105.981
113.300	526.772	106.016
113.340	599.256	106.045
113.380	657.501	106.082
113.420	701.537	106.114
113.460	725.573	106.145
113.500	737.160	106.179
113.540	732.432	106.208
113.580	706.522	106.239
113.620	664.572	106.270
113.660	606.232	106.306
113.700	538.977	106.338
113.740	468.008	106.370
113.780	387.236	106.406
113.820	296.623	106.440
113.860	201.195	106.468
113.900	97.862	106.505
113.940	-11.043	106.533
113.980	-126.069	106.567
114.020	-236.077	106.598
114.060	-326.849	106.634
114.100	-391.950	106.668
114.140	-445.373	106.701
114.180	-491.170	106.735
114.220	-528.494	106.766
114.260	-549.291	106.798
114.300	-556.426	106.834
114.340	-554.238	106.864
114.380	-525.551	106.900
114.420	-483.136	106.934
114.460	-436.766	106.966
114.500	-376.780	107.000
114.540	-305.995	107.032
114.580	-222.066	107.067
114.620	-132.464	107.100
114.660	-44.096	107.137
114.700	40.550	107.168
114.740	118.684	107.202
114.780	189.533	107.233
114.820	255.801	107.268
114.860	310.553	107.305
114.900	353.964	107.335
114.940	380.712	107.373
114.980	381.018	107.403
115.020	358.714	107.438
115.060	319.973	107.477
115.100	274.427	107.506
115.140	223.055	107.541
115.180	162.930	107.574
115.220	91.535	107.609
115.260	11.205	107.642
115.300	-69.254	107.676
115.340	-129.852	107.714
115.380	-184.110	107.747
115.420	-228.063	107.778
115.460	-264.367	107.811
115.500	-301.914	107.848
115.540	-346.190	107.888
115.580	-382.930	107.918
115.620	-408.395	107.951
115.660	-420.650	107.986
115.700	-417.742	108.023
115.740	-394.903	108.054
115.780	-352.570	108.089
115.820	-296.709	108.127
115.860	-234.975	108.162
115.900	-159.809	108.192
115.940	-66.297	108.228
115.980	29.677	108.266
116.020	124.947	108.299
116.060	219.136	108.331
116.100	306.734	108.368
116.140	382.896	108.405
116.180	445.018	108.434
116.220	493.935	108.474
116.260	527.671	108.505
116.300	541.535	108.544
116.340	547.445	108.576
116.380	526.401	108.615
116.420	497.121	108.647
116.460	458.466	108.686
116.500	370.289	108.721
116.540	252.200	108.756
116.580	128.850	108.791
116.620	11.129	108.829
116.660	-112.228	108.862
116.700	-250.615	108.898
116.740	-387.895	108.933
116.780	-508.852	108.967
116.820	-612.481	109.005
116.860	-701.953	109.035
116.900	-769.236	109.077
116.940	-808.033	109.113
116.980	-830.300	109.149
117.020	-844.337	109.181
117.060	-839.595	109.219
117.100	-810.163	109.255
117.140	-739.686	109.292
117.180	-647.004	109.329
117.220	-535.685	109.362
117.260	-403.404	109.399
117.300	-256.520	109.433
117.340	-113.494	109.468
117.380	32.338	109.506
117.420	171.011	109.544
117.460	300.630	109.576
117.500	428.218	109.613
117.540	548.632	109.655
117.580	649.089	109.689
117.620	724.967	109.723
117.660	779.031	109.761
117.700	803.849	109.793
117.740	804.443	109.828
117.780	770.260	109.864
117.820	696.869	109.901
117.860	592.698	109.940
117.900	487.357	109.975
117.940	383.590	110.012
117.980	274.400	110.047
118.020	169.266	110.086
118.060	94.352	110.122
118.100	29.559	110.157
118.140	-32.360	110.199
118.180	-92.410	110.234
118.220	-168.521	110.270
118.260	-237.872	110.306
118.300	-310.951	110.341
118.340	-370.479	110.380
118.380	-410.272	110.416
118.420	-434.442	110.450
118.460	-440.033	110.490
118.500	-428.237	110.530
118.540	-400.999	110.562
118.580	-356.673	110.599
118.620	-303.729	110.638
118.660	-244.294	110.674
118.700	-178.579	110.716
118.740	-102.305	110.745
118.780	-23.167	110.787
118.820	53.211	110.822
118.860	125.047	110.857
118.900	192.754	110.894
118.940	243.916	110.932
118.980	273.798	110.972
119.020	292.106	111.005
119.060	297.632	111.044
119.100	284.337	111.083
119.140	260.247	111.117
119.180	228.969	111.152
119.220	186.817	111.189
119.260	136.184	111.228
119.300	73.668	111.264
119.340	3.962	111.305
119.380	-68.822	111.340
119.420	-138.208	111.381
119.460	-198.560	111.416
119.500	-251.846	111.450
119.540	-296.456	111.491
119.580	-327.159	111.523
119.620	-322.915	111.562
119.660	-261.549	111.602
119.700	-245.108	111.639
119.740	-259.692	111.676
119.780	-239.388	111.710
119.820	-213.496	111.749
119.860	-191.079	111.790
119.900	-153.694	111.827
119.940	-106.166	111.858
119.980	-49.259	111.898
120.020	18.218	111.935
120.060	97.047	111.973
120.100	176.581	112.016
120.140	243.135	112.049
120.180	288.073	112.089
120.220	314.820	112.129
120.260	338.416	112.168
120.300	346.143	112.205
120.340	328.720	112.242
120.380	291.606	112.275
120.420	239.007	112.313
120.460	174.535	112.354
120.500	111.144	112.390
120.540	39.174	112.430
120.580	-35.331	112.467
120.620	-99.425	112.504
120.660	-153.852	112.541
120.700	-204.899	112.583
120.740	-261.803	112.618
120.780	-322.329	112.655
120.820	-366.883	112.699
120.860	-388.618	112.734
120.900	-392.601	112.770
120.940	-382.580	112.807
120.980	-357.196	112.849
121.020	-316.663	112.889
121.060	-265.147	112.922
121.100	-202.999	112.961
121.140	-127.311	112.999
121.180	-42.291	113.034
121.220	43.520	113.078
121.260	118.686	113.113
121.300	185.416	113.149
121.340	249.170	113.188
121.380	309.488	113.234
121.420	359.525	113.266
121.460	397.646	113.300
121.500	416.628	113.343
121.540	406.089	113.383
121.580	368.374	113.420
121.620	318.569	113.459
121.660	251.512	113.496
121.700	165.209	113.534
121.740	67.632	113.571
121.780	-40.294	113.607
121.820	-149.976	113.649
121.860	-247.931	113.690
121.900	-332.851	113.726
121.940	-406.023	113.757
121.980	-471.924	113.804
122.020	-532.371	113.843
122.060	-582.120	113.877
122.100	-617.385	113.915
122.140	-633.078	113.960
122.180	-623.469	113.995
122.220	-592.664	114.035
122.260	-542.843	114.072
122.300	-471.606	114.112
122.340	-382.204	114.152
122.380	-281.914	114.190
122.420	-168.404	114.229
122.460	-51.361	114.264
122.500	65.595	114.302
122.540	183.577	114.342
122.580	305.669	114.382
122.620	422.638	114.417
122.660	532.593	114.459
122.700	626.025	114.496
122.740	698.238	114.536
122.780	757.468	114.574
122.820	791.689	114.613
122.860	800.592	114.649
122.900	774.968	114.693
122.940	716.816	114.728
122.980	638.263	114.770
123.020	551.813	114.805
123.060	438.090	114.844
123.100	320.198	114.885
123.140	209.882	114.922
123.180	93.925	114.962
123.220	-34.494	115.000
123.260	-159.516	115.037
123.300	-271.088	115.077
123.340	-371.132	115.116
123.380	-457.428	115.157
123.420	-514.864	115.195
123.460	-546.849	115.236
123.500	-568.838	115.273
123.540	-569.930	115.312
123.580	-549.844	115.350
123.620	-509.129	115.390
123.660	-454.934	115.430
123.700	-375.550	115.468
123.740	-283.367	115.506
123.780	-184.258	115.544
123.820	-94.551	115.585
123.860	-20.161	115.623
123.900	46.695	115.662
123.940	103.060	115.698
123.980	146.895	115.741
124.020	174.266	115.780
124.060	184.245	115.821
124.100	181.482	115.855
124.140	171.722	115.897
124.180	162.815	115.933
124.220	141.847	115.977
124.260	100.948	116.018
124.300	57.565	116.055
124.340	10.261	116.096
124.380	-43.051	116.133
124.420	-93.207	116.174
124.460	-135.687	116.209
124.500	-179.520	116.248
124.540	-220.557	116.287
124.580	-245.324	116.332
124.620	-253.003	116.369
124.660	-248.108	116.407
124.700	-229.687	116.446
124.740	-201.278	116.485
124.780	-168.218	116.525
124.820	-122.903	116.565
124.860	-58.303	116.600
124.900	12.527	116.642
124.940	90.553	116.681
124.980	177.551	116.721
125.020	263.485	116.755
125.060	345.803	116.800
125.100	423.108	116.837
125.140	482.666	116.871
125.180	517.320	116.918
125.220	523.525	116.958
125.260	514.410	116.997
125.300	488.676	117.032
125.340	447.001	117.075
125.380	396.008	117.110
125.420	337.334	117.148
125.460	256.219	117.192
125.500	165.946	117.231
125.540	69.094	117.271
125.580	-30.229	117.306
125.620	-126.830	117.347
125.660	-213.567	117.388
125.700	-283.288	117.429
125.740	-337.849	117.467
125.780	-377.238	117.509
125.820	-398.843	117.550
125.860	-397.967	117.587
125.900	-376.302	117.629
125.940	-325.877	117.661
125.980	-249.961	117.704
126.020	-154.411	117.743
126.060	-36.615	117.785
126.100	85.061	117.825
126.140	218.465	117.861
126.180	364.078	117.902
126.220	509.223	117.940
126.260	652.917	117.983
126.300	790.680	118.022
126.340	913.567	118.060
126.380	1008.619	118.105
126.420	1066.620	118.143
126.460	1079.831	118.179
126.500	1051.874	118.218
126.540	1007.345	118.258
126.580	949.883	118.299
126.620	880.810	118.343
126.660	797.595	118.379
126.700	695.138	118.414
126.740	575.739	118.456
126.780	446.862	118.497
126.820	305.877	118.536
126.860	161.950	118.577
126.900	26.302	118.618
126.940	-99.729	118.656
126.980	-208.194	118.696
127.020	-300.036	118.735
127.060	-372.066	118.775
127.100	-417.889	118.816
127.140	-443.403	118.856
127.180	-449.854	118.895
127.220	-436.083	118.931
127.260	-404.460	118.975
127.300	-358.394	119.010
127.340	-291.669	119.052
127.380	-208.443	119.092
127.420	-119.385	119.129
127.460	-31.973	119.170
127.500	51.179	119.210
127.540	129.464	119.251
127.580	202.095	119.288
127.620	273.381	119.331
127.660	339.734	119.372
127.700	395.255	119.410
127.740	429.623	119.449
127.780	436.718	119.488
127.820	411.949	119.526
127.860	367.798	119.569
127.900	317.805	119.608
127.940	251.969	119.649
127.980	178.397	119.688
128.020	108.643	119.729
128.060	32.776	119.767
128.100	-50.849	119.806
128.140	-126.313	119.850
128.180	-182.175	119.887
128.220	-213.979	119.928
128.260	-235.185	119.970
128.300	-244.546	120.005
128.340	-242.516	120.046
128.380	-228.934	120.088
128.420	-211.872	120.127
128.460	-195.242	120.164
128.500	-157.121	120.206
128.540	-83.628	120.246
128.580	13.019	120.286
128.620	90.932	120.323
128.660	157.358	120.362
128.700	219.054	120.404
128.740	281.627	120.447
128.780	345.821	120.485
128.820	406.911	120.525
128.860	451.736	120.565
128.900	484.429	120.605
128.940	501.811	120.644
128.980	504.781	120.682
129.020	475.246	120.728
129.060	413.641	120.765
129.100	342.724	120.804
129.140	260.750	120.844
129.180	168.688	120.884
129.220	72.237	120.923
129.260	-20.284	120.962
129.300	-100.695	121.003
129.340	-167.585	121.040
129.380	-218.619	121.083
129.420	-257.980	121.123
129.460	-284.132	121.163
129.500	-296.513	121.207
129.540	-296.802	121.244
129.580	-287.087	121.279
129.620	-257.470	121.324
129.660	-203.545	121.365
129.700	-132.262	121.402
129.740	-53.408	121.447
129.780	29.594	121.484
129.820	110.405	121.524
129.860	185.713	121.563
129.900	257.293	121.605
129.940	326.626	121.650
129.980	385.721	121.686
130.020	430.323	121.725
130.060	452.304	121.764
130.100	452.355	121.808
130.140	426.718	121.843
130.180	382.590	121.883
130.220	335.262	121.924
130.260	272.386	121.960
130.300	195.269	122.001
130.340	108.717	122.046
130.380	14.138	122.084
130.420	-83.479	122.122
130.460	-181.704	122.161
130.500	-279.038	122.203
130.540	-364.062	122.244
130.580	-436.315	122.288
130.620	-489.758	122.325
130.660	-521.132	122.367
130.700	-540.628	122.403
130.740	-532.600	122.442
130.780	-501.287	122.482
130.820	-464.020	122.522
130.860	-424.152	122.561
130.900	-389.235	122.608
130.940	-365.009	122.645
130.980	-323.344	122.683
131.020	-233.149	122.724
131.060	-120.732	122.767
131.100	-8.212	122.805
131.140	89.038	122.842
131.180	181.550	122.886
131.220	264.258	122.925
131.260	345.693	122.963
131.300	426.125	123.002
131.340	483.509	123.046
131.380	516.598	123.087
131.420	531.597	123.122
131.460	529.150	123.163
131.500	509.716	123.207
131.540	470.703	123.245
131.580	415.388	123.286
131.620	346.082	123.327
131.660	266.552	123.363
131.700	184.468	123.405
131.740	104.281	123.445
131.780	21.560	123.488
131.820	-52.051	123.527
131.860	-109.875	123.566
131.900	-155.742	123.604
131.940	-188.246	123.648
131.980	-207.036	123.687
132.020	-210.136	123.728
132.060	-194.433	123.765
132.100	-168.821	123.811
132.140	-142.485	123.849
132.180	-108.803	123.886
132.220	-68.558	123.929
132.260	-18.939	123.972
132.300	34.984	124.008
132.340	79.978	124.050
132.380	113.024	124.092
132.420	143.845	124.133
132.460	158.423	124.170
132.500	162.083	124.208
132.540	159.413	124.251
132.580	144.997	124.289
132.620	119.902	124.328
132.660	83.920	124.369
132.700	33.154	124.411
